Time;Speed;Position X;Position Y;Acceleration X;Speed X;Speed Y;Collision State;Road Identifier;Brake Force;Lane Number;Trip Meter;
0.0500011891127;0.0;28988.5917969;1.74400937557;0.0;0.0;0.0;0.0;62.0;0.0;3.0;0.0;
0.127809762955;0.593498110771;28988.5820312;1.74402022362;1.38366413116;0.164860591292;-9.71891422523e-05;0.0;62.0;0.0;3.0;0.0101536838338;
0.166827440262;0.593498110771;28988.5820312;1.74402022362;1.38366413116;0.164860591292;-9.71891422523e-05;0.0;62.0;0.0;3.0;0.0101536838338;
0.200000241399;0.82266241312;28988.5703125;1.7440199852;4.78946971893;0.228517338634;-9.71574554569e-05;0.0;62.0;0.0;3.0;0.0245101395994;
0.250036358833;1.02283775806;28988.5566406;1.74402046204;10.9765701294;0.284121602774;-5.6330285588e-05;0.0;62.0;0.0;3.0;0.0416098050773;
0.30001527071;1.19803857803;28988.5390625;1.7440212965;11.0859203339;0.33278849721;-1.69872146216e-05;0.0;62.0;0.0;3.0;0.0604805983603;
0.35000321269;1.35521841049;28988.5195312;1.74402213097;11.1981601715;0.376449555159;2.62514404312e-05;0.0;62.0;0.0;3.0;0.0804980397224;
0.399994760752;1.50117278099;28988.5;1.74402272701;11.4189071655;0.416992425919;3.78796285077e-05;0.0;62.0;0.0;3.0;0.101256638765;
0.450008302927;1.63606345654;28988.4785156;1.74402320385;11.1373987198;0.454462081194;5.79774641665e-05;0.0;62.0;0.0;3.0;0.122927203774;
0.50002425909;1.76260411739;28988.4550781;1.74402296543;11.0592021942;0.48961225152;2.37698095589e-05;0.0;62.0;0.0;3.0;0.14601495862;
0.550025761127;1.88560044765;28988.4296875;1.74402225018;11.0340690613;0.523777902126;-1.11175031634e-05;0.0;62.0;0.0;3.0;0.170756220818;
0.600018203259;2.00689411163;28988.4042969;1.74402225018;10.9742069244;0.557470560074;-1.64866323757e-05;0.0;62.0;0.0;3.0;0.197230711579;
0.649976909161;2.12703800201;28988.3769531;1.74402189255;10.9676551819;0.590843915939;-1.49425568452e-05;0.0;62.0;0.0;3.0;0.225495710969;
0.700018167496;2.246104002;28988.3457031;1.74402213097;11.0282878876;0.623917758465;-1.05904136944e-05;0.0;62.0;0.0;3.0;0.255565404892;
0.750028967857;2.36432743073;28988.3144531;1.74402248859;11.0547094345;0.656757593155;-3.70223142454e-06;0.0;62.0;0.0;3.0;0.287400662899;
0.800031363964;2.48123335838;28988.28125;1.74402272701;11.0875530243;0.689231514931;2.53870693996e-05;0.0;62.0;0.0;3.0;0.320931136608;
0.850028932095;2.59670352936;28988.2460938;1.7440226078;11.0463895798;0.721306562424;7.62702438806e-06;0.0;62.0;0.0;3.0;0.356097042561;
0.900034070015;2.71061515808;28988.2089844;1.7440226078;11.0431222916;0.752948641777;-4.60300526584e-07;0.0;62.0;0.0;3.0;0.392859071493;
0.94997382164;2.8227353096;28988.1699219;1.74402320385;11.0304861069;0.784093141556;1.84170221473e-05;0.0;62.0;0.0;3.0;0.431186616421;
1.00004756451;2.93302989006;28988.1308594;1.74402332306;11.0983228683;0.814730525017;-2.19620051212e-05;0.0;62.0;0.0;3.0;0.471050441265;
1.05005145073;3.04114151001;28988.0898438;1.74402344227;11.0372905731;0.844761550426;-1.10390710688e-05;0.0;62.0;0.0;3.0;0.512412071228;
1.10003614426;3.14670562744;28988.046875;1.74402344227;11.0350198746;0.874084889889;-2.54085061897e-05;0.0;62.0;0.0;3.0;0.555236399174;
1.15004789829;3.24949216843;28988.0019531;1.74402356148;10.9897699356;0.902636706829;-1.76586181624e-05;0.0;62.0;0.0;3.0;0.599491477013;
1.2000399828;3.34924244881;28987.9570312;1.74402368069;10.9981946945;0.930345118046;-2.90456646326e-05;0.0;62.0;0.0;3.0;0.645146131516;
1.25004565716;3.44583511353;28987.9101562;1.74402451515;11.0492677689;0.95717638731;3.27170491801e-05;0.0;62.0;0.0;3.0;0.692166268826;
1.30005288124;3.53907704353;28987.8613281;1.74402427673;11.0046052933;0.983076930046;6.4019891397e-06;0.0;62.0;0.0;3.0;0.740505635738;
1.35006165504;3.62885022163;28987.8105469;1.7440237999;10.9989175797;1.0080139637;-4.60668434243e-06;0.0;62.0;0.0;3.0;0.790115773678;
1.40004777908;3.71605372429;28987.7597656;1.74402356148;11.0254669189;1.03223717213;-5.15683041158e-06;0.0;62.0;0.0;3.0;0.840954780579;
1.45005917549;3.80122542381;28987.7089844;1.74402368069;11.0259084702;1.05589592457;-7.40746509109e-06;0.0;62.0;0.0;3.0;0.892992973328;
1.50005376339;3.88507461548;28987.65625;1.74402332306;11.0472097397;1.07918739319;-8.42859208205e-06;0.0;62.0;0.0;3.0;0.946205735207;
1.55006122589;3.96812701225;28987.6015625;1.74402391911;11.0616970062;1.10225749016;3.17685990012e-05;0.0;62.0;0.0;3.0;1.0005774498;
1.6000585556;4.05079603195;28987.5449219;1.7440237999;11.0554685593;1.12522113323;5.70110614717e-06;0.0;62.0;0.0;3.0;1.05610215664;
1.65005552769;4.13337612152;28987.4882812;1.74402403831;11.082660675;1.14816009998;-1.16406399684e-05;0.0;62.0;0.0;3.0;1.1127808094;
1.70007503033;4.21623563766;28987.4316406;1.74402439594;11.0665225983;1.17117655277;-3.16864111483e-06;0.0;62.0;0.0;3.0;1.1706135273;
1.75006878376;4.2994351387;28987.3710938;1.74402451515;11.0616016388;1.19428753853;-9.70957626123e-06;0.0;62.0;0.0;3.0;1.22960329056;
1.80007445812;4.38327503204;28987.3125;1.74402475357;11.0544452667;1.21757638454;-5.49414198758e-06;0.0;62.0;0.0;3.0;1.28975701332;
1.85006844997;4.46761608124;28987.25;1.74402523041;11.0141086578;1.24100446701;2.63214883489e-06;0.0;62.0;0.0;3.0;1.35108613968;
1.90006959438;4.55289030075;28987.1875;1.7440251112;10.9828071594;1.26469171047;2.39701284954e-06;0.0;62.0;0.0;3.0;1.41359770298;
1.95009338856;4.6390209198;28987.125;1.74402534962;10.9799127579;1.28861689568;2.80274161923e-06;0.0;62.0;0.0;3.0;1.47730219364;
2.00009059906;4.7261133194;28987.0585938;1.74402546883;10.9547147751;1.3128092289;3.72229237655e-07;0.0;62.0;0.0;3.0;1.54221498966;
2.05008888245;4.81422281265;28986.9941406;1.74402534962;10.9217071533;1.33728408813;-2.72505549219e-05;0.0;62.0;0.0;3.0;1.60834956169;
2.1000854969;4.90344142914;28986.9257812;1.74402523041;10.9067935944;1.36206710339;2.28197473007e-06;0.0;62.0;0.0;3.0;1.67571783066;
2.15009117126;4.99379777908;28986.8574219;1.74402534962;10.8670225143;1.38716602325;-2.75076445178e-06;0.0;62.0;0.0;3.0;1.74433493614;
2.20010566711;5.08377504349;28986.7871094;1.7440251112;10.7928771973;1.41215968132;1.52530662945e-06;0.0;62.0;0.0;3.0;1.81420981884;
2.25009512901;5.17474126816;28986.7167969;1.74402546883;10.7177219391;1.4374281168;9.53506514634e-06;0.0;62.0;0.0;3.0;1.88533997536;
2.30010890961;5.26696634293;28986.6445312;1.74402546883;10.6217670441;1.46304619312;5.77668970436e-06;0.0;62.0;0.0;3.0;1.9577447176;
2.35011792183;5.36043691635;28986.5703125;1.74402558804;10.5046463013;1.48901021481;6.65629795549e-06;0.0;62.0;0.0;3.0;2.03144454956;
2.40010070801;5.45524168015;28986.4941406;1.74402570724;10.3986368179;1.51534485817;-4.29976444138e-06;0.0;62.0;0.0;3.0;2.10645484924;
2.45010042191;5.55135917664;28986.4179688;1.74402570724;10.2789831161;1.54204428196;2.63664151134e-06;0.0;62.0;0.0;3.0;2.18279457092;
2.50009989738;5.64873361588;28986.3417969;1.74402570724;10.1247367859;1.56909263134;-4.42328428107e-06;0.0;62.0;0.0;3.0;2.2604830265;
2.55010914803;5.74746465683;28986.2617188;1.74402582645;9.94177436829;1.59651792049;-3.33114599016e-06;0.0;62.0;0.0;3.0;2.33953619003;
2.60011696815;5.8475227356;28986.1816406;1.74402606487;9.75776100159;1.62431192398;9.84025336948e-06;0.0;62.0;0.0;3.0;2.41997385025;
2.65011072159;5.94891166687;28986.0996094;1.74402606487;9.50663948059;1.65247547626;8.31089073472e-06;0.0;62.0;0.0;3.0;2.5018157959;
2.70011043549;6.05168819427;28986.015625;1.7440264225;9.23184585571;1.68102443218;8.94752702152e-06;0.0;62.0;0.0;3.0;2.58507847786;
2.75011897087;6.15574741364;28985.9316406;1.74402630329;8.81278419495;1.70992982388;-2.14373244489e-06;0.0;62.0;0.0;3.0;2.66978430748;
2.80012202263;6.26096487045;28985.8457031;1.74402666092;8.11647033691;1.73915696144;1.48122881001e-05;0.0;62.0;0.0;3.0;2.75595092773;
2.85011386871;6.36510658264;28985.7578125;1.74402701855;4.45397233963;1.76808512211;-3.29851241077e-06;0.0;62.0;0.0;3.0;2.8435986042;
2.90012121201;6.47362327576;28985.6679688;1.74402701855;4.14050722122;1.79822874069;-5.42269663129e-06;0.0;62.0;0.0;3.0;2.93274998665;
2.95012259483;6.583507061;28985.578125;1.74402701855;3.72617506981;1.82875192165;2.15875425056e-05;0.0;62.0;0.0;3.0;3.02342152596;
3.00014066696;6.6947760582;28985.4863281;1.74402713776;3.31873321533;1.85966002941;-2.68721541943e-05;0.0;62.0;0.0;3.0;3.11563682556;
3.05013298988;6.80738544464;28985.3925781;1.74402725697;2.72706723213;1.89094042778;-3.66473932445e-06;0.0;62.0;0.0;3.0;3.20941233635;
3.1001291275;6.92134666443;28985.296875;1.74402749538;2.18565177917;1.92259633541;1.56585356308e-05;0.0;62.0;0.0;3.0;3.30476617813;
3.15013480186;7.03603649139;28985.1992188;1.74402725697;1.07352685928;1.95445454121;8.91369472811e-06;0.0;62.0;0.0;3.0;3.40171575546;
3.20013475418;7.15229654312;28985.1015625;1.74402713776;0.276617914438;1.986749053;-9.2123336799e-06;0.0;62.0;0.0;3.0;3.50027751923;
3.25014567375;7.27073717117;28985.0019531;1.74402737617;0.578658223152;2.0196492672;1.09015081762e-06;0.0;62.0;0.0;3.0;3.60047101974;
3.30012822151;7.39032793045;28984.8984375;1.74402761459;0.800775408745;2.05286884308;1.45770509334e-05;0.0;62.0;0.0;3.0;3.70231246948;
3.35015916824;7.5107011795;28984.7949219;1.74402761459;0.565751731396;2.0863058567;1.54360168381e-05;0.0;62.0;0.0;3.0;3.80582213402;
3.40014028549;7.6326417923;28984.6914062;1.7440277338;0.709694445133;2.12017822266;2.5167608328e-05;0.0;62.0;0.0;3.0;3.91101551056;
3.45014953613;7.7556180954;28984.5839844;1.74402785301;0.649432361126;2.15433835983;1.17629033412e-05;0.0;62.0;0.0;3.0;4.01791191101;
3.50016379356;7.87996435165;28984.4746094;1.74402785301;0.669712603092;2.18887901306;-4.87109309688e-06;0.0;62.0;0.0;3.0;4.12652683258;
3.5501639843;8.00549602509;28984.3652344;1.74402761459;0.724711596966;2.22374892235;-1.5088676264e-05;0.0;62.0;0.0;3.0;4.23687934875;
3.60016179085;8.13227748871;28984.2519531;1.7440277338;0.650000274181;2.25896596909;-6.40356847725e-06;0.0;62.0;0.0;3.0;4.34898376465;
3.6501750946;8.26038646698;28984.1386719;1.74402785301;0.749353408813;2.29455184937;4.32201204603e-06;0.0;62.0;0.0;3.0;4.46285963058;
3.70016026497;8.38963127136;28984.0234375;1.7440277338;0.768577814102;2.33045315742;-2.09184636333e-05;0.0;62.0;0.0;3.0;4.57852172852;
3.75016927719;8.52003097534;28983.90625;1.7440277338;0.752868771553;2.36667537689;-4.62253365185e-06;0.0;62.0;0.0;3.0;4.69598722458;
3.80017256737;8.65164279938;28983.7871094;1.7440277338;0.771710336208;2.40323400497;-2.199310984e-06;0.0;62.0;0.0;3.0;4.81527137756;
3.85018229485;8.78425216675;28983.6660156;1.7440277338;0.718915641308;2.44007015228;3.58847455573e-06;0.0;62.0;0.0;3.0;4.93639087677;
3.90017080307;8.91816234589;28983.5429688;1.7440277338;0.850910127163;2.47726726532;-2.21041918849e-05;0.0;62.0;0.0;3.0;5.05936002731;
3.95017051697;9.05292701721;28983.4179688;1.74402785301;0.742205202579;2.51470184326;4.10022767028e-06;0.0;62.0;0.0;3.0;5.18419504166;
4.00017881393;9.18899917603;28983.2910156;1.74402785301;0.858169734478;2.55249977112;3.63530534742e-06;0.0;62.0;0.0;3.0;5.31091165543;
4.05017614365;9.32599925995;28983.1621094;1.74402821064;0.733613371849;2.59055542946;2.43151080213e-05;0.0;62.0;0.0;3.0;5.43952465057;
4.10018539429;9.46421909332;28983.03125;1.74402821064;0.779790878296;2.62894964218;8.62935121404e-06;0.0;62.0;0.0;3.0;5.57005023956;
4.15019416809;9.60355472565;28982.8984375;1.74402809143;0.813061833382;2.66765403748;4.76396962767e-06;0.0;62.0;0.0;3.0;5.70250272751;
4.20020008087;9.74393749237;28982.7636719;1.74402797222;0.773347437382;2.70664930344;8.69626273925e-06;0.0;62.0;0.0;3.0;5.83689880371;
4.25019884109;9.88548469543;28982.6289062;1.74402797222;0.768668055534;2.74596810341;1.46235606735e-06;0.0;62.0;0.0;3.0;5.97325325012;
4.30020666122;10.0282468796;28982.4902344;1.74402761459;0.823475897312;2.78562402725;-1.7197095076e-05;0.0;62.0;0.0;3.0;6.11158132553;
4.35019874573;10.1720046997;28982.3496094;1.74402737617;0.778768718243;2.82555675507;-1.80539082066e-05;0.0;62.0;0.0;3.0;6.25189971924;
4.40020656586;10.3170213699;28982.2070312;1.74402749538;0.823303937912;2.86583924294;-5.59735599381e-06;0.0;62.0;0.0;3.0;6.39422464371;
4.45020580292;10.4632387161;28982.0625;1.74402749538;0.831510663033;2.9064552784;4.20536082402e-07;0.0;62.0;0.0;3.0;6.53857135773;
4.50019884109;10.6105537415;28981.9160156;1.74402737617;0.870650172234;2.9473760128;-9.82464098342e-06;0.0;62.0;0.0;3.0;6.68495702744;
4.5502038002;10.7590799332;28981.7675781;1.74402701855;0.804179430008;2.98863339424;-1.84517721209e-05;0.0;62.0;0.0;3.0;6.83339834213;
4.60020589828;10.9087553024;28981.6171875;1.74402749538;0.805592656136;3.03020977974;9.24925006984e-06;0.0;62.0;0.0;3.0;6.98391103745;
4.65021896362;11.0598201752;28981.4648438;1.74402761459;0.856554269791;3.07217240334;1.04432683656e-05;0.0;62.0;0.0;3.0;7.13651323318;
4.7002248764;11.2120351791;28981.3105469;1.74402749538;0.835016965866;3.11445426941;1.07080431917e-05;0.0;62.0;0.0;3.0;7.29122114182;
4.75020837784;11.3655881882;28981.1542969;1.74402749538;0.823549509048;3.15710783005;2.85790410999e-05;0.0;62.0;0.0;3.0;7.44805335999;
4.80020856857;11.5204772949;28980.9941406;1.74402725697;0.920699894428;3.20013260841;-6.046258477e-06;0.0;62.0;0.0;3.0;7.60702705383;
4.85022163391;11.6764822006;28980.8339844;1.74402713776;0.845161437988;3.24346733093;1.30998423629e-05;0.0;62.0;0.0;3.0;7.76816082001;
4.90022611618;11.8339214325;28980.6699219;1.74402666092;0.862055122852;3.2872004509;-8.93012565939e-06;0.0;62.0;0.0;3.0;7.93147230148;
4.95017910004;11.9944190979;28980.5019531;1.74402630329;0.937911450863;3.33178305626;-7.16285921953e-06;0.0;62.0;0.0;3.0;8.09864711761;
5.00021886826;12.154545784;28980.3359375;1.74402618408;0.92240768671;3.37626266479;-7.16181830285e-06;0.0;62.0;0.0;3.0;8.2663936615;
5.05020236969;12.3161249161;28980.1660156;1.74402594566;0.875996589661;3.42114591599;-7.43721147956e-06;0.0;62.0;0.0;3.0;8.43637561798;
5.10023260117;12.4792232513;28979.9921875;1.74402618408;0.963488042355;3.46645092964;4.98128929394e-06;0.0;62.0;0.0;3.0;8.60861301422;
5.15022563934;12.64199543;28979.8203125;1.74402630329;0.838265538216;3.51166534424;8.91833678907e-06;0.0;62.0;0.0;3.0;8.78136825562;
5.20023536682;12.8096437454;28979.640625;1.74402606487;0.873045027256;3.5582344532;1.48690960486e-05;0.0;62.0;0.0;3.0;8.95993232727;
5.25023031235;12.9772167206;28979.4628906;1.74402570724;1.00994086266;3.60478234291;-4.02806290367e-06;0.0;62.0;0.0;3.0;9.13905620575;
5.30023813248;13.1445550919;28979.2832031;1.74402546883;0.944759488106;3.65126538277;5.41696635992e-07;0.0;62.0;0.0;3.0;9.31869220734;
5.35026311874;13.3169603348;28979.0976562;1.7440251112;0.993368446827;3.69915556908;-3.47874038198e-06;0.0;62.0;0.0;3.0;9.50434112549;
5.4002494812;13.4892187119;28978.9101562;1.74402523041;1.01779019833;3.74700522423;1.32553150252e-05;0.0;62.0;0.0;3.0;9.69054603577;
5.45025491714;13.6631669998;28978.7226562;1.74402523041;0.991727054119;3.79532408714;1.5539017113e-05;0.0;62.0;0.0;3.0;9.87915611267;
5.50025272369;13.8387470245;28978.53125;1.74402475357;0.99273878336;3.8440964222;2.41138582169e-06;0.0;62.0;0.0;3.0;10.0701942444;
5.55024242401;14.0162296295;28978.3378906;1.74402487278;1.02211117744;3.89339709282;3.03570027427e-06;0.0;62.0;0.0;3.0;10.2636852264;
5.60025072098;14.1952877045;28978.1425781;1.74402427673;0.941336750984;3.94313549995;-9.42741189647e-06;0.0;62.0;0.0;3.0;10.4596529007;
5.65027809143;14.3761873245;28977.9433594;1.74402403831;0.926731526852;3.99338531494;1.06539600893e-05;0.0;62.0;0.0;3.0;10.6581220627;
5.70025777817;14.5588026047;28977.7421875;1.74402391911;0.981435120106;4.04411172867;-3.12212409881e-06;0.0;62.0;0.0;3.0;10.8591165543;
5.75026607513;14.7433300018;28977.5390625;1.74402356148;1.05975270271;4.09536933899;-1.29512854983e-05;0.0;62.0;0.0;3.0;11.0626602173;
5.80026769638;14.9295768738;28977.3320312;1.74402356148;1.00846099854;4.14710474014;-3.16621617458e-06;0.0;62.0;0.0;3.0;11.2687797546;
5.8502702713;15.1178617477;28977.125;1.74402308464;1.05468261242;4.199406147;-8.48942272569e-06;0.0;62.0;0.0;3.0;11.4775009155;
5.90025997162;15.3080787659;28976.9121094;1.74402284622;1.07915377617;4.25224399567;-6.14625605522e-06;0.0;62.0;0.0;3.0;11.6888513565;
5.9502658844;15.500333786;28976.6992188;1.74402284622;1.05645430088;4.30564832687;2.94016740554e-06;0.0;62.0;0.0;3.0;11.9028587341;
6.00028896332;15.6947727203;28976.4824219;1.74402272701;1.09896194935;4.35965919495;4.07851803175e-06;0.0;62.0;0.0;3.0;12.1195526123;
6.05027723312;15.8912992477;28976.2617188;1.74402248859;1.12619197369;4.414249897;-1.46819115798e-06;0.0;62.0;0.0;3.0;12.3389625549;
6.10028028488;16.090139389;28976.0410156;1.74402201176;1.11723315716;4.46948337555;-4.7404741963e-06;0.0;62.0;0.0;3.0;12.5611200333;
6.15027713776;16.2912464142;28975.8164062;1.74402189255;1.11221802235;4.52534627914;1.53855171448e-06;0.0;62.0;0.0;3.0;12.7860565186;
6.2002825737;16.4948101044;28975.5878906;1.74402153492;1.13538515568;4.58189153671;-9.12256837182e-06;0.0;62.0;0.0;3.0;13.0138044357;
6.25028467178;16.7008342743;28975.3574219;1.74402153492;1.06077051163;4.63912057877;-6.15112230662e-06;0.0;62.0;0.0;3.0;13.2443981171;
6.30028629303;16.9095077515;28975.1230469;1.74402153492;1.20043373108;4.69708538055;3.37395249517e-06;0.0;62.0;0.0;3.0;13.4778728485;
6.35031270981;17.1208286285;28974.8867188;1.74402105808;1.11830222607;4.75578594208;2.88487694888e-06;0.0;62.0;0.0;3.0;13.7142658234;
6.40030241013;17.3348712921;28974.6484375;1.74402070045;1.12131881714;4.81524181366;-2.48161609306e-06;0.0;62.0;0.0;3.0;13.9536151886;
6.45029592514;17.5517749786;28974.40625;1.74402093887;1.28127264977;4.87549304962;1.48227136378e-05;0.0;62.0;0.0;3.0;14.1959581375;
6.50030040741;17.7713985443;28974.1601562;1.74402022362;1.23206174374;4.93649959564;-1.55035595526e-05;0.0;62.0;0.0;3.0;14.4413337708;
6.55029678345;17.9939517975;28973.9121094;1.7440199852;1.24936318398;4.99832010269;-1.69022914633e-05;0.0;62.0;0.0;3.0;14.6897821426;
6.60030221939;18.2195014954;28973.6601562;1.74401962757;1.28349637985;5.06097269058;-1.52758875629e-05;0.0;62.0;0.0;3.0;14.9413433075;
6.65031337738;18.4481391907;28973.40625;1.74401986599;1.28583443165;5.12448310852;-1.59113949394e-06;0.0;62.0;0.0;3.0;15.1960601807;
6.70030355453;18.6798858643;28973.1484375;1.74402010441;1.32196414471;5.18885707855;5.66729158891e-06;0.0;62.0;0.0;3.0;15.4539766312;
6.7502989769;18.9149570465;28972.8867188;1.74402010441;1.36156904697;5.25415468216;-5.05408570461e-06;0.0;62.0;0.0;3.0;15.7151355743;
6.80031204224;19.1533508301;28972.6210938;1.74401974678;1.36093592644;5.32037496567;-2.80285962617e-06;0.0;62.0;0.0;3.0;15.9795837402;
6.85032606125;19.3951568604;28972.3535156;1.74401986599;1.35965681076;5.38754367828;6.02696400165e-06;0.0;62.0;0.0;3.0;16.2473697662;
6.90031814575;19.6404743195;28972.0820312;1.7440199852;1.35149002075;5.45568752289;9.33547289605e-06;0.0;62.0;0.0;3.0;16.5185413361;
6.95031356812;19.8895874023;28971.8085938;1.7440199852;1.45484614372;5.52488517761;1.13973337648e-05;0.0;62.0;0.0;3.0;16.7931480408;
7.00033903122;20.1422920227;28971.53125;1.74401950836;1.38436639309;5.59508132935;-3.06929632643e-06;0.0;62.0;0.0;3.0;17.0712413788;
7.05031204224;20.39894104;28971.2480469;1.74401950836;1.43095040321;5.66637277603;-2.35478205468e-06;0.0;62.0;0.0;3.0;17.3528747559;
7.10033082962;20.6595306396;28970.9628906;1.74401950836;1.45258164406;5.738758564;-4.70764007332e-06;0.0;62.0;0.0;3.0;17.6381015778;
7.15032958984;20.9239959717;28970.6738281;1.74401926994;1.39737761021;5.81222105026;-6.13993097431e-06;0.0;62.0;0.0;3.0;17.9269771576;
7.2003288269;21.1927471161;28970.3828125;1.74401938915;1.53070998192;5.88687419891;-5.42161706107e-06;0.0;62.0;0.0;3.0;18.2195587158;
7.25033569336;21.4656429291;28970.0859375;1.7440199852;1.4847009182;5.96267843246;1.0767897038e-05;0.0;62.0;0.0;3.0;18.5159034729;
7.30034399033;21.742641449;28969.7851562;1.74401950836;1.55229890347;6.03962278366;-8.46500824991e-06;0.0;62.0;0.0;3.0;18.8160686493;
7.35036230087;22.0240821838;28969.4804688;1.74401938915;1.62837636471;6.11780071259;-7.01436056261e-06;0.0;62.0;0.0;3.0;19.1201133728;
7.40035533905;22.3095817566;28969.1738281;1.7440199852;1.50984346867;6.19710588455;9.72525776888e-06;0.0;62.0;0.0;3.0;19.4280986786;
