Time;Speed;Position X;Position Y;Acceleration X;Speed X;Speed Y;Collision State;Road Identifier;Brake Force;Lane Number;Trip Meter;
0.0499719753861;0.0;15.2142095566;-1.75;0.0;0.0;0.0;0.0;0.0;0.0;3.0;0.0;
0.0999737679958;0.320404589176;15.2169055939;-1.75;1.6451485157;0.089001275599;-3.64897829286e-07;0.0;0.0;0.0;3.0;0.0;
0.149984300137;0.596658170223;15.2245721817;-1.75;1.38947367668;0.165738373995;-3.55906081495e-07;0.0;0.0;0.0;3.0;0.0101278480142;
0.199979156256;0.824442386627;15.2360696793;-1.75;1.17551016808;0.229011774063;-2.11614548107e-07;0.0;0.0;0.0;3.0;0.0244927071035;
0.249990895391;1.0109411478;15.2505636215;-1.75;-9.0368270874;0.280816972256;3.92427459417e-08;0.0;0.0;0.0;3.0;0.0416386649013;
0.299974918365;1.18730187416;15.2675123215;-1.75;-9.24556922913;0.329806089401;1.00315368456e-07;0.0;0.0;0.0;3.0;0.0605928450823;
0.349985450506;1.3455029726;15.2864646912;-1.75;-9.50897407532;0.373750835657;1.10495065542e-07;0.0;0.0;0.0;3.0;0.0807285532355;
0.399988442659;1.49232912064;15.3069944382;-1.75;-9.83393669128;0.414535880089;-1.89493962188e-10;0.0;0.0;0.0;3.0;0.101640991867;
0.450001358986;1.62891614437;15.3288288116;-1.75;-9.70081520081;0.452476710081;-8.98088003964e-09;0.0;0.0;0.0;3.0;0.123481474817;
0.49999293685;1.75695288181;15.3520174026;-1.75;-9.67036628723;0.488042473793;1.02777306665e-07;0.0;0.0;0.0;3.0;0.146748021245;
0.549997746944;1.88125371933;15.3767976761;-1.75;-9.68140697479;0.522570490837;1.71086128375e-07;0.0;0.0;0.0;3.0;0.171682849526;
0.600009441376;2.00392007828;15.4033699036;-1.75;-9.63348770142;0.556644439697;2.19434468818e-07;0.0;0.0;0.0;3.0;0.198367357254;
0.650001585484;2.12521243095;15.4318141937;-1.75;-9.65647602081;0.590336799622;2.29537178598e-07;0.0;0.0;0.0;3.0;0.226855769753;
0.700012743473;2.24528312683;15.4621171951;-1.75;-9.7229757309;0.623689770699;2.31986689414e-07;0.0;0.0;0.0;3.0;0.257166296244;
0.75001513958;2.36439800262;15.4942102432;-1.75;-9.75933837891;0.656777203083;1.82238977686e-07;0.0;0.0;0.0;3.0;0.289259791374;
0.800006985664;2.48223352432;15.5280122757;-1.75;-9.76954746246;0.68950933218;1.63133833553e-07;0.0;0.0;0.0;3.0;0.323062002659;
0.850010275841;2.59850859642;15.5634593964;-1.75;-9.7790813446;0.721807956696;1.05871492906e-07;0.0;0.0;0.0;3.0;0.358511149883;
0.900008440018;2.71314930916;15.6005134583;-1.75;-9.79009914398;0.753652572632;7.69839303416e-08;0.0;0.0;0.0;3.0;0.395566731691;
0.95002502203;2.82596230507;15.6391410828;-1.75;-9.80355930328;0.784989535809;5.5136428756e-08;0.0;0.0;0.0;3.0;0.434195756912;
1.00001716614;2.93670272827;15.6793107986;-1.75;-9.81928253174;0.815750777721;4.4761051754e-08;0.0;0.0;0.0;3.0;0.474365979433;
1.05001056194;3.04514813423;15.7209863663;-1.75;-9.8382434845;0.845874488354;2.78823453215e-08;0.0;0.0;0.0;3.0;0.516041755676;
1.10002195835;3.15101051331;15.7641305923;-1.75;-9.8615398407;0.875280678272;8.24306845004e-09;0.0;0.0;0.0;3.0;0.55918610096;
1.15002584457;3.25401544571;15.8087091446;-1.75;-9.8889503479;0.903893172741;3.74699882233e-10;0.0;0.0;0.0;3.0;0.603765070438;
1.20002615452;3.35392332077;15.8546895981;-1.75;-9.91885852814;0.931645393372;4.54268317407e-10;0.0;0.0;0.0;3.0;0.649745047092;
1.25002968311;3.45055055618;15.9020338058;-1.75;-9.94735527039;0.958486258984;-2.84970241848e-10;0.0;0.0;0.0;3.0;0.697089195251;
1.30002403259;3.54372048378;15.9506988525;-1.75;-9.98334789276;0.984366774559;5.37735855843e-09;0.0;0.0;0.0;3.0;0.745755016804;
1.35003423691;3.6337928772;16.0006389618;-1.75;-10.0259933472;1.00938689709;6.18275830533e-09;0.0;0.0;0.0;3.0;0.795695602894;
1.40003657341;3.72161602974;16.0518169403;-1.75;-10.0661783218;1.03378224373;7.99838506538e-09;0.0;0.0;0.0;3.0;0.84687268734;
1.45004081726;3.80785918236;16.1042041779;-1.75;-10.0954227448;1.05773866177;9.95247084745e-09;0.0;0.0;0.0;3.0;0.899259626865;
1.5000411272;3.89309811592;16.1577835083;-1.75;-10.1148452759;1.08141613007;2.77154521555e-09;0.0;0.0;0.0;3.0;0.952839493752;
1.55004382133;3.97782707214;16.2125473022;-1.75;-10.1251659393;1.10495197773;3.89413035151e-09;0.0;0.0;0.0;3.0;1.00760293007;
1.6000585556;4.06245946884;16.2684898376;-1.75;-10.1273584366;1.1284610033;1.00936530245e-08;0.0;0.0;0.0;3.0;1.06354665756;
1.65005850792;4.14731121063;16.3256149292;-1.75;-10.1224966049;1.15203094482;8.99891983153e-09;0.0;0.0;0.0;3.0;1.12067210674;
1.70005071163;4.23260354996;16.383928299;-1.75;-10.1112003326;1.17572319508;5.68114089106e-09;0.0;0.0;0.0;3.0;1.17898416519;
1.75006365776;4.31851291656;16.4434337616;-1.75;-10.0936975479;1.1995869875;1.04842161619e-08;0.0;0.0;0.0;3.0;1.23849010468;
1.8000549078;4.4051861763;16.5041427612;-1.75;-10.0704717636;1.22366285324;1.0536998829e-08;0.0;0.0;0.0;3.0;1.29919934273;
1.85006904602;4.49274587631;16.5660667419;-1.75;-10.04180336;1.24798500538;5.42555556038e-09;0.0;0.0;0.0;3.0;1.36112308502;
1.90005302429;4.58129787445;16.6292171478;-1.75;-10.0079908371;1.27258276939;2.08685175807e-08;0.0;0.0;0.0;3.0;1.42427396774;
1.95007228851;4.67092657089;16.6936092377;-1.75;-9.97050094604;1.29747962952;1.09706537188e-08;0.0;0.0;0.0;3.0;1.4886661768;
2.00006532669;4.76170778275;16.7592582703;-1.75;-9.92970371246;1.32269656658;7.21221837807e-09;0.0;0.0;0.0;3.0;1.55431485176;
2.05008435249;4.85370206833;16.8261795044;-1.75;-9.88630390167;1.34825062752;7.63646568203e-09;0.0;0.0;0.0;3.0;1.62123608589;
2.10011172295;4.94697523117;16.8943901062;-1.75;-9.84008789062;1.37415981293;-3.26895985836e-08;0.0;0.0;0.0;3.0;1.68944644928;
2.1500825882;5.04066181183;16.9639034271;-1.75;-9.7848777771;1.40018379688;1.02243964406e-08;0.0;0.0;0.0;3.0;1.75895988941;
2.20006799698;5.13494157791;17.0347175598;-1.75;-9.69051647186;1.42637264729;1.01700745603e-08;0.0;0.0;0.0;3.0;1.82977473736;
2.2500872612;5.23068618774;17.1068534851;-1.75;-9.58444213867;1.45296835899;1.01030668276e-08;0.0;0.0;0.0;3.0;1.90190958977;
2.3000702858;5.32790327072;17.1803283691;-1.75;-9.46565628052;1.47997307777;1.0030170472e-08;0.0;0.0;0.0;3.0;1.97538566589;
2.35009503365;5.42660427094;17.2551670074;-1.75;-9.33246707916;1.50739002228;9.97103288825e-09;0.0;0.0;0.0;3.0;2.05022358894;
2.40007543564;5.52681016922;17.3313865662;-1.75;-9.18162059784;1.53522503376;5.26503018961e-09;0.0;0.0;0.0;3.0;2.12644386292;
2.45009589195;5.62854242325;17.4090099335;-1.75;-9.01109695435;1.56348395348;9.90492132757e-09;0.0;0.0;0.0;3.0;2.20406675339;
2.50009202957;5.73182106018;17.4880561829;-1.75;-8.81598472595;1.59217250347;1.26807631062e-08;0.0;0.0;0.0;3.0;2.2831132412;
2.55010080338;5.83667469025;17.5685482025;-1.75;-8.59066390991;1.62129855156;7.53913997897e-09;0.0;0.0;0.0;3.0;2.36360454559;
2.60009431839;5.94313335419;17.6505050659;-1.75;-8.3245716095;1.65087032318;9.5681702561e-09;0.0;0.0;0.0;3.0;2.44556188583;
2.65010881424;6.05123329163;17.7339496613;-1.75;-7.9995470047;1.68089818954;4.1338492629e-09;0.0;0.0;0.0;3.0;2.52900695801;
2.70009899139;6.1610417366;17.8189048767;-1.75;-7.56900835037;1.71140050888;9.0854737067e-09;0.0;0.0;0.0;3.0;2.61396169662;
2.75009226799;6.27283859253;17.9053916931;-1.75;-6.75635528564;1.74245512486;1.22562173743e-08;0.0;0.0;0.0;3.0;2.70044875145;
2.80011630058;6.38896512985;17.993434906;-1.75;-3.08558535576;1.77471256256;1.23358674387e-08;0.0;0.0;0.0;3.0;2.78849220276;
2.85011601448;6.50373649597;18.0830554962;-1.75;-2.68596816063;1.80659341812;1.21996732716e-08;0.0;0.0;0.0;3.0;2.87811350822;
2.90010404587;6.62016582489;18.1742763519;-1.75;-2.2414484024;1.83893489838;1.19885479322e-08;0.0;0.0;0.0;3.0;2.9693338871;
2.95012187958;6.73820352554;18.2671165466;-1.75;-1.71810340881;1.87172317505;1.18370051538e-08;0.0;0.0;0.0;3.0;3.06217360497;
3.00011301041;6.85782814026;18.3615951538;-1.75;-1.06850528717;1.90495228767;9.61077351036e-09;0.0;0.0;0.0;3.0;3.15665316582;
3.05011534691;6.97908210754;18.457736969;-1.75;-0.193898394704;1.93863391876;1.14936247186e-08;0.0;0.0;0.0;3.0;3.25279331207;
3.1001200676;7.10163784027;18.555557251;-1.75;0.605347752571;1.97267711163;6.17697750727e-08;0.0;0.0;0.0;3.0;3.35061478615;
3.15011119843;7.22490215302;18.6550807953;-1.75;0.687933862209;2.00691723824;1.04248396582e-08;0.0;0.0;0.0;3.0;3.45013785362;
3.20012283325;7.34943199158;18.7563247681;-1.75;0.695185065269;2.04150891304;8.46003445076e-09;0.0;0.0;0.0;3.0;3.55138254166;
3.25012660027;7.47527360916;18.8593101501;-1.75;0.702754616737;2.07646489143;6.9962382554e-09;0.0;0.0;0.0;3.0;3.65436792374;
3.30011892319;7.60243701935;18.9640541077;-1.75;0.710142791271;2.11178803444;9.93086324286e-09;0.0;0.0;0.0;3.0;3.75911188126;
3.35012936592;7.73093414307;19.0705757141;-1.75;0.717598080635;2.14748167992;9.94380844332e-09;0.0;0.0;0.0;3.0;3.86563277245;
3.40013456345;7.86077880859;19.1788921356;-1.75;0.725009262562;2.18354964256;1.42953950899e-08;0.0;0.0;0.0;3.0;3.97394871712;
3.45013427734;7.99198198318;19.2890205383;-1.75;0.732632756233;2.21999502182;1.39238247598e-08;0.0;0.0;0.0;3.0;4.08407783508;
3.50013756752;8.12455749512;19.4009819031;-1.75;0.740407586098;2.25682139397;1.37008742129e-08;0.0;0.0;0.0;3.0;4.19603872299;
3.55013775826;8.25848388672;19.514793396;-1.75;0.747705340385;2.29402327538;1.33904691779e-08;0.0;0.0;0.0;3.0;4.30985069275;
3.6001329422;8.39371204376;19.6304740906;-1.75;0.754656970501;2.33158659935;1.3075410088e-08;0.0;0.0;0.0;3.0;4.42553186417;
3.65014386177;8.53020572662;19.7480430603;-1.75;0.761810719967;2.36950159073;1.57335104944e-08;0.0;0.0;0.0;3.0;4.54309988022;
3.70014739037;8.6679391861;19.867515564;-1.75;0.7686445117;2.40776085854;1.55651793676e-08;0.0;0.0;0.0;3.0;4.66257238388;
3.75015854836;8.80689525604;19.9889087677;-1.75;0.775354087353;2.44635987282;1.34245574657e-08;0.0;0.0;0.0;3.0;4.78396654129;
3.80015182495;8.94706439972;20.112241745;-1.75;0.781965017319;2.48529577255;1.0872059697e-08;0.0;0.0;0.0;3.0;4.90729904175;
3.85015511513;9.0884437561;20.2375297546;-1.75;0.788675904274;2.52456760406;1.31287309912e-08;0.0;0.0;0.0;3.0;5.03258705139;
3.90016627312;9.2310295105;20.3647899628;-1.75;0.795484244823;2.56417489052;6.2083467256e-09;0.0;0.0;0.0;3.0;5.15984725952;
3.95016288757;9.37482643127;20.4940395355;-1.75;0.802199602127;2.60411858559;1.07352358114e-08;0.0;0.0;0.0;3.0;5.28909683228;
4.00016260147;9.51984119415;20.625295639;-1.75;0.808975815773;2.6444003582;1.24243246802e-08;0.0;0.0;0.0;3.0;5.42035198212;
4.05017280579;9.66607761383;20.7585735321;-1.75;0.815983474255;2.68502163887;9.75528280378e-09;0.0;0.0;0.0;3.0;5.55363035202;
4.10015678406;9.81354904175;20.8938922882;-1.75;0.822780489922;2.72598576546;1.17624558982e-08;0.0;0.0;0.0;3.0;5.68894863129;
4.15016126633;9.9622631073;21.0312671661;-1.75;0.829587936401;2.76729536057;1.52545478471e-08;0.0;0.0;0.0;3.0;5.82632398605;
4.20017004013;10.1122341156;21.1707172394;-1.75;0.836576879025;2.80895400047;1.1162592628e-08;0.0;0.0;0.0;3.0;5.9657740593;
4.25016355515;10.2634754181;21.3122596741;-1.75;0.843933284283;2.85096549988;1.29078614464e-08;0.0;0.0;0.0;3.0;6.10731649399;
4.30018806458;10.4160013199;21.4559116364;-1.75;0.850864589214;2.89333367348;1.27410837436e-08;0.0;0.0;0.0;3.0;6.25096893311;
4.35016775131;10.5698280334;21.6016921997;-1.75;0.858297169209;2.93606328964;1.33303759142e-08;0.0;0.0;0.0;3.0;6.39674901962;
4.4001789093;10.7249727249;21.7496185303;-1.75;0.86555069685;2.97915911674;1.7424106602e-08;0.0;0.0;0.0;3.0;6.54467535019;
4.45018386841;10.8814554214;21.8997097015;-1.75;0.873224556446;3.02262639999;1.67984115507e-08;0.0;0.0;0.0;3.0;6.69476652145;
4.50018358231;11.0392942429;22.0519828796;-1.75;0.880806028843;3.06647062302;1.17066818461e-08;0.0;0.0;0.0;3.0;6.84704113007;
4.55017709732;11.1985120773;22.2064609528;-1.75;0.888482093811;3.11069774628;9.83902914697e-09;0.0;0.0;0.0;3.0;7.00151777267;
4.6001830101;11.3591299057;22.3631591797;-1.75;0.896369576454;3.15531396866;1.44624721088e-08;0.0;0.0;0.0;3.0;7.1582159996;
4.65019083023;11.5211725235;22.5220985413;-1.75;0.904288828373;3.20032572746;8.65950067208e-09;0.0;0.0;0.0;3.0;7.31715583801;
4.70019388199;11.6846637726;22.6833000183;-1.75;0.91244417429;3.24573993683;7.5281789691e-09;0.0;0.0;0.0;3.0;7.47835683823;
4.75020027161;11.8512878418;22.8484287262;-1.75;0.920756220818;3.29202437401;5.64580249218e-09;0.0;0.0;0.0;3.0;7.64348602295;
4.80018997192;12.0161008835;23.0125675201;-1.75;0.929171144962;3.33780574799;8.11411382529e-09;0.0;0.0;0.0;3.0;7.80762434006;
4.85021209717;12.1841020584;23.1806755066;-1.75;0.937564432621;3.38447284698;7.09616632122e-09;0.0;0.0;0.0;3.0;7.97573280334;
4.90021371841;12.3536672592;23.3511295319;-1.75;0.946285903454;3.43157434464;1.34106770133e-08;0.0;0.0;0.0;3.0;8.14618587494;
4.95020580292;12.5248279572;23.5239486694;-1.75;0.955423891544;3.47911882401;1.06374979936e-08;0.0;0.0;0.0;3.0;8.31900596619;
5.00020837784;12.6993541718;23.7009220123;-1.75;0.963252902031;3.52759838104;1.0995634625e-08;0.0;0.0;0.0;3.0;8.49597930908;
5.0502038002;12.8720741272;23.8767795563;-1.75;0.973758161068;3.57557606697;9.27440257925e-09;0.0;0.0;0.0;3.0;8.67183685303;
5.10021352768;13.0482339859;24.0568370819;-1.75;0.983564436436;3.62450933456;8.62762927767e-09;0.0;0.0;0.0;3.0;8.85189437866;
5.15020608902;13.2261352539;24.2393550873;-1.75;0.993171334267;3.67392659187;8.8191391967e-09;0.0;0.0;0.0;3.0;9.03441143036;
5.20023155212;13.4058237076;24.4243564606;-1.75;1.00321149826;3.72383999825;6.02936456318e-09;0.0;0.0;0.0;3.0;9.21941280365;
5.25021266937;13.5891666412;24.6137542725;-1.75;1.01377999783;3.77476859093;6.47915721075e-09;0.0;0.0;0.0;3.0;9.40881061554;
5.30021476746;13.7725801468;24.8038253784;-1.75;1.02426016331;3.82571673393;7.87483767084e-09;0.0;0.0;0.0;3.0;9.5988817215;
5.35023784637;13.9579200745;24.9964580536;-1.75;1.03518807888;3.87720012665;8.76187566945e-09;0.0;0.0;0.0;3.0;9.79151439667;
5.40022706985;14.1452379227;25.1916790009;-1.75;1.04620838165;3.92923283577;8.01184540933e-09;0.0;0.0;0.0;3.0;9.98673629761;
5.45022964478;14.3345890045;25.3895168304;-1.75;1.05778098106;3.98183035851;1.22390924062e-08;0.0;0.0;0.0;3.0;10.1845750809;
5.50022602081;14.5260324478;25.5900020599;-1.75;1.06952524185;4.03500890732;7.90602605605e-09;0.0;0.0;0.0;3.0;10.3850593567;
5.55022668839;14.7195940018;25.7931594849;-1.75;1.08120632172;4.0887761116;1.0658726346e-08;0.0;0.0;0.0;3.0;10.5882177353;
5.60026979446;14.9152450562;25.9990234375;-1.75;1.09276485443;4.14312362671;1.06548307954e-08;0.0;0.0;0.0;3.0;10.7940807343;
5.65028047562;15.1130523682;26.2076187134;-1.75;1.10503315926;4.19807004929;5.85960213684e-09;0.0;0.0;0.0;3.0;11.0026769638;
5.7002415657;15.3130836487;26.4189777374;-1.75;1.11765801907;4.25363445282;2.03352623629e-09;0.0;0.0;0.0;3.0;11.2140369415;
5.75023889542;15.51541996;26.6331329346;-1.75;1.13066387177;4.30983877182;-2.67480260163e-09;0.0;0.0;0.0;3.0;11.4281921387;
5.80026054382;15.7201356888;26.8501167297;-1.75;1.14411997795;4.36670446396;-4.62127980327e-09;0.0;0.0;0.0;3.0;11.6451749802;
5.85024833679;15.9273176193;27.0699596405;-1.75;1.15798377991;4.42425489426;3.22795101759e-09;0.0;0.0;0.0;3.0;11.8650197983;
5.90024805069;16.1370544434;27.2927017212;-1.75;1.17245543003;4.48251485825;2.8042690392e-09;0.0;0.0;0.0;3.0;12.0877609253;
5.95022296906;16.3494358063;27.5183753967;-1.75;1.18753242493;4.54151010513;2.39465358653e-09;0.0;0.0;0.0;3.0;12.3134355545;
6.00024843216;16.5645675659;27.7470207214;-1.75;1.20296812057;4.60126876831;2.60698729271e-09;0.0;0.0;0.0;3.0;12.5420799255;
6.05026912689;16.7825527191;27.9786739349;-1.75;1.21915030479;4.66182041168;1.64540348013e-09;0.0;0.0;0.0;3.0;12.7737340927;
6.10026502609;17.0034980774;28.2133789062;-1.75;1.23579800129;4.72319364548;1.28960053747e-09;0.0;0.0;0.0;3.0;13.0084381104;
6.1502737999;17.2274475098;28.4511737823;-1.75;1.25241911411;4.78540229797;9.90276749491e-10;0.0;0.0;0.0;3.0;13.2462339401;
6.20025634766;17.454460144;28.6921043396;-1.75;1.26979613304;4.84846115112;7.25271065427e-10;0.0;0.0;0.0;3.0;13.4871635437;
6.25026273727;17.6846084595;28.936208725;-1.75;1.28743863106;4.91239118576;5.0258264217e-10;0.0;0.0;0.0;3.0;13.7312688828;
6.30026245117;17.9179763794;29.1835346222;-1.75;1.30563688278;4.97721576691;3.29892752005e-10;0.0;0.0;0.0;3.0;13.97859478;
6.35027265549;18.1546611786;29.4341278076;-1.75;1.32429945469;5.04296159744;-4.22382928633e-09;0.0;0.0;0.0;3.0;14.2291870117;
6.40026950836;18.3947658539;29.6880321503;-1.75;1.34364795685;5.1096572876;-4.30200652879e-10;0.0;0.0;0.0;3.0;14.483092308;
6.45028781891;18.6384010315;29.9452991486;-1.75;1.36362981796;5.17733335495;3.44953787756e-10;0.0;0.0;0.0;3.0;14.7403583527;
6.5002913475;18.8856754303;30.2059764862;-1.75;1.38410782814;5.24602079391;-2.12424883239e-10;0.0;0.0;0.0;3.0;15.0010356903;
6.5502948761;19.1367073059;30.4701156616;-1.75;1.4053119421;5.31575202942;-3.37145089624e-09;0.0;0.0;0.0;3.0;15.2651758194;
6.60029602051;19.3916110992;30.7377719879;-1.75;1.42708230019;5.38655853271;-5.33544675108e-09;0.0;0.0;0.0;3.0;15.532831192;
6.65028762817;19.6504993439;31.0089969635;-1.75;1.44956481457;5.45847225189;-4.71961003612e-09;0.0;0.0;0.0;3.0;15.8040571213;
6.70030164719;19.9081859589;31.2783164978;-1.75;1.47218370438;5.53005170822;-4.77688022471e-09;0.0;0.0;0.0;3.0;16.0733776093;
6.74930286407;20.1752948761;31.5567798615;-1.75;1.49581646919;5.60424852371;-4.75866013261e-09;0.0;0.0;0.0;3.0;16.3518409729;
6.79928588867;20.4467105865;31.8389835358;-1.75;1.52009153366;5.67964172363;-3.61491792056e-09;0.0;0.0;0.0;3.0;16.6340465546;
6.84930849075;20.7225322723;32.1249923706;-1.75;1.54468023777;5.75625896454;-4.40140501823e-09;0.0;0.0;0.0;3.0;16.9200534821;
6.8993139267;21.0028476715;32.4148635864;-1.75;1.56994712353;5.83412456512;-4.18305257099e-09;0.0;0.0;0.0;3.0;17.2099266052;
6.94928121567;21.2877407074;32.7086639404;-1.75;1.59554290771;5.91326141357;-3.88558918374e-09;0.0;0.0;0.0;3.0;17.5037269592;
6.99930620193;21.5772800446;33.0064544678;-1.75;1.62150609493;5.99368906021;-7.67308705463e-09;0.0;0.0;0.0;3.0;17.8015193939;
7.04929351807;21.8715267181;33.308303833;-1.75;1.6479845047;6.07542419434;-3.67396890688e-09;0.0;0.0;0.0;3.0;18.1033668518;
7.09930944443;22.1705284119;33.6142730713;-1.75;1.67446494102;6.15848016739;-2.98092395212e-09;0.0;0.0;0.0;3.0;18.4093379974;
7.14929866791;22.4743175507;33.9244346619;-1.75;1.70104014874;6.24286603928;-7.75552422283e-09;0.0;0.0;0.0;3.0;18.7194976807;
7.19931364059;22.7829113007;34.2388496399;-1.75;1.7278983593;6.32858657837;-9.94032500756e-09;0.0;0.0;0.0;3.0;19.0339107513;
7.2493224144;23.0963115692;34.5575828552;-1.75;1.75460314751;6.41564226151;-9.91892790125e-09;0.0;0.0;0.0;3.0;19.352645874;
7.29930639267;23.4145050049;34.8807067871;-1.75;1.78116238117;6.50402927399;-5.62099566892e-09;0.0;0.0;0.0;3.0;19.6757698059;
7.34932088852;23.737455368;35.2082862854;-1.75;1.80738985538;6.59373760223;-4.08533562535e-09;0.0;0.0;0.0;3.0;20.0033473969;
7.39934253693;24.0651092529;35.5403823853;-1.75;1.83326935768;6.68475246429;-3.74067932185e-09;0.0;0.0;0.0;3.0;20.3354454041;
7.4493265152;24.3973960876;35.8770675659;-1.75;1.85890126228;6.77705430984;-7.18306747416e-09;0.0;0.0;0.0;3.0;20.6721286774;
7.49933004379;24.7342205048;36.2183990479;-1.75;1.88378536701;6.87061691284;-3.39775896308e-09;0.0;0.0;0.0;3.0;21.0134601593;
7.54934120178;25.0754718781;36.5644378662;-1.75;1.90785610676;6.96540880203;-4.71513095235e-09;0.0;0.0;0.0;3.0;21.359500885;
7.5993475914;25.4210147858;36.9152488708;-1.75;1.93111944199;7.06139278412;-7.4955579521e-09;0.0;0.0;0.0;3.0;21.7103118896;
7.64934062958;25.77069664;37.2708892822;-1.75;1.95391428471;7.15852689743;-5.23314991341e-09;0.0;0.0;0.0;3.0;22.065952301;
7.69932556152;26.1243457794;37.6314163208;-1.75;1.97540140152;7.25676250458;-8.31466806517e-09;0.0;0.0;0.0;3.0;22.4264774323;
7.74934101105;26.4817676544;37.9968795776;-1.75;1.99585020542;7.35604667664;-6.94288049274e-09;0.0;0.0;0.0;3.0;22.7919406891;
7.79934835434;26.842754364;38.3673324585;-1.75;2.01505684853;7.45632076263;-6.09678529884e-09;0.0;0.0;0.0;3.0;23.1623935699;
7.84934520721;27.2070789337;38.7428207397;-1.75;2.03303837776;7.55752182007;-5.91560356256e-09;0.0;0.0;0.0;3.0;23.5378837585;
7.89933490753;27.574508667;39.1233940125;-1.75;2.04958248138;7.65958547592;-4.73447725469e-09;0.0;0.0;0.0;3.0;23.9184551239;
