Time;Speed;Position X;Position Y;Acceleration X;Speed X;Speed Y;Collision State;Road Identifier;Brake Force;Lane Number;Trip Meter;
0.0499671585858;0.0;3245.76025391;-1.75;0.0;0.0;0.0;0.0;68.0;0.0;3.0;0.0;
0.0999602153897;0.318724095821;3245.76318359;-1.75000011921;1.65314936638;0.0885344743729;-1.67843591043e-05;0.0;68.0;0.0;3.0;0.0;
0.149962306023;0.593475580215;3245.77075195;-1.74999988079;1.37609744072;0.164854332805;-5.23070048075e-06;0.0;68.0;0.0;3.0;0.0101556116715;
0.199969828129;0.821276009083;3245.78222656;-1.75000035763;2.80189871788;0.228132218122;6.666853551e-06;0.0;68.0;0.0;3.0;0.0245134271681;
0.249973416328;1.0227714777;3245.79663086;-1.75000011921;10.98777771;0.284103184938;-9.07301546249e-06;0.0;68.0;0.0;3.0;0.0416143685579;
0.299962252378;1.1980111599;3245.81347656;-1.75;11.0881223679;0.332780867815;-1.07679625216e-05;0.0;68.0;0.0;3.0;0.0604850240052;
0.349981814623;1.35518431664;3245.83227539;-1.74999976158;11.1934747696;0.37644007802;-1.49756469909e-05;0.0;68.0;0.0;3.0;0.0805022642016;
0.399974286556;1.50117826462;3245.8527832;-1.75000023842;11.3957996368;0.416993945837;1.2826114471e-05;0.0;68.0;0.0;3.0;0.101260334253;
0.449987202883;1.63603878021;3245.87426758;-1.75000035763;11.1530609131;0.45445522666;2.25993553613e-05;0.0;68.0;0.0;3.0;0.122930675745;
0.499984174967;1.76258409023;3245.89746094;-1.75000035763;11.0612258911;0.489606678486;2.14160058931e-06;0.0;68.0;0.0;3.0;0.146018445492;
0.549991726875;1.88556373119;3245.921875;-1.74999976158;11.0403633118;0.523767709732;-2.3240383598e-05;0.0;68.0;0.0;3.0;0.170759767294;
0.599984169006;2.0068924427;3245.94824219;-1.74999964237;10.9578533173;0.557470142841;-2.06036711461e-05;0.0;68.0;0.0;3.0;0.197233706713;
0.649991691113;2.12707686424;3245.9765625;-1.75000035763;10.9784545898;0.59085470438;-3.5781972656e-06;0.0;68.0;0.0;3.0;0.225498855114;
0.699989259243;2.24616789818;3246.0065918;-1.75;11.0393295288;0.623935520649;-6.94686150382e-06;0.0;68.0;0.0;3.0;0.255568832159;
0.749991953373;2.36432671547;3246.03833008;-1.75000011921;11.0789232254;0.656757414341;-2.08159599424e-06;0.0;68.0;0.0;3.0;0.287404298782;
0.799997031689;2.48131918907;3246.07202148;-1.75000011921;11.0554895401;0.689255356789;-5.62766308576e-06;0.0;68.0;0.0;3.0;0.320934563875;
0.850000321865;2.59669995308;3246.10717773;-1.75000023842;11.0388422012;0.721305549145;7.76453543949e-06;0.0;68.0;0.0;3.0;0.356100171804;
0.900003314018;2.71063876152;3246.14379883;-1.75000011921;11.0513286591;0.752955198288;1.9699930931e-07;0.0;68.0;0.0;3.0;0.392862647772;
0.950010836124;2.82284927368;3246.18212891;-1.75;11.0450363159;0.784124791622;5.86636815569e-06;0.0;68.0;0.0;3.0;0.431190907955;
1.00000333786;2.93303751945;3246.22216797;-1.75000011921;11.0510139465;0.814732670784;-2.53671896644e-06;0.0;68.0;0.0;3.0;0.471054434776;
1.05000329018;3.04111146927;3246.26342773;-1.75000011921;11.0131568909;0.844753205776;9.86301256489e-06;0.0;68.0;0.0;3.0;0.51241517067;
1.10002350807;3.14672470093;3246.30615234;-1.75000047684;11.0421047211;0.874090194702;2.66578645096e-05;0.0;68.0;0.0;3.0;0.555237829685;
1.15004217625;3.24946498871;3246.35058594;-1.75000023842;10.9918422699;0.902629137039;6.20607670498e-06;0.0;68.0;0.0;3.0;0.59949272871;
1.20005381107;3.34928774834;3246.39624023;-1.75;11.025229454;0.930357694626;-1.02161493487e-05;0.0;68.0;0.0;3.0;0.645147502422;
1.25002944469;3.44570088387;3246.44311523;-1.75000011921;10.9760828018;0.957139134407;2.11169408431e-05;0.0;68.0;0.0;3.0;0.692167162895;
1.30004692078;3.53894424438;3246.49145508;-1.75000035763;10.9643163681;0.983040034771;2.39220262301e-05;0.0;68.0;0.0;3.0;0.740505814552;
1.350050807;3.6288330555;3246.54101562;-1.75000035763;10.998468399;1.00800919533;1.26447139337e-05;0.0;68.0;0.0;3.0;0.790115475655;
1.40005743504;3.71599125862;3246.59204102;-1.75000011921;11.0100784302;1.03221976757;-9.74674730969e-06;0.0;68.0;0.0;3.0;0.840953290462;
1.45007550716;3.80127048492;3246.64404297;-1.75;11.0526342392;1.05590844154;-4.78842139273e-06;0.0;68.0;0.0;3.0;0.892990887165;
1.50001883507;3.88501405716;3246.69726562;-1.75;11.0335130692;1.07917058468;1.57648196364e-06;0.0;68.0;0.0;3.0;0.946203351021;
1.55003595352;3.96808457375;3246.75146484;-1.74999940395;11.0848073959;1.10224568844;-5.33421552973e-06;0.0;68.0;0.0;3.0;1.00057387352;
1.60004353523;4.05077266693;3246.80712891;-1.74999916553;11.0672521591;1.12521469593;-1.11185536298e-05;0.0;68.0;0.0;3.0;1.0560977459;
1.65003442764;4.13343143463;3246.86376953;-1.74999940395;11.0833683014;1.14817535877;1.41613909364e-05;0.0;68.0;0.0;3.0;1.11277735233;
1.70003318787;4.21621179581;3246.92163086;-1.74999964237;11.0852632523;1.17116999626;1.26948507386e-05;0.0;68.0;0.0;3.0;1.17061090469;
1.75003051758;4.29943323135;3246.98071289;-1.74999916553;11.0450868607;1.19428706169;-6.89266880727e-06;0.0;68.0;0.0;3.0;1.22960031033;
1.80004167557;4.38322639465;3247.04077148;-1.74999880791;11.0533285141;1.21756291389;-5.66812832403e-06;0.0;68.0;0.0;3.0;1.28975319862;
1.85005879402;4.46766662598;3247.10205078;-1.74999856949;11.0347032547;1.24101853371;-2.02192259167e-05;0.0;68.0;0.0;3.0;1.35108244419;
1.90005993843;4.55292034149;3247.16455078;-1.7499986887;10.9944925308;1.26470005512;-1.45659205373e-05;0.0;68.0;0.0;3.0;1.41359424591;
1.95004010201;4.63909053802;3247.22827148;-1.74999904633;10.9898481369;1.28863620758;5.14199018653e-06;0.0;68.0;0.0;3.0;1.47729945183;
2.00005269051;4.72613143921;3247.29321289;-1.74999892712;10.9346961975;1.3128143549;3.12506745104e-06;0.0;68.0;0.0;3.0;1.54221260548;
2.05005335808;4.81426620483;3247.359375;-1.74999892712;10.9286184311;1.33729612827;-3.01928935187e-06;0.0;68.0;0.0;3.0;1.60834801197;
2.10008764267;4.90350008011;3247.42675781;-1.74999880791;10.9027271271;1.36208331585;2.27394389185e-06;0.0;68.0;0.0;3.0;1.67571699619;
2.15008735657;4.99199199677;3247.49389648;-1.74999880791;10.8642263412;1.38666439056;1.97166773432e-05;0.0;68.0;0.0;3.0;1.74295127392;
2.19909954071;5.08207511902;3247.5637207;-1.74999904633;10.812702179;1.41168749332;-3.85494195143e-06;0.0;68.0;0.0;3.0;1.81280267239;
2.24907565117;5.17302703857;3247.63500977;-1.74999916553;10.7073345184;1.4369519949;-3.27582029058e-06;0.0;68.0;0.0;3.0;1.88390922546;
2.29909420013;5.26527929306;3247.70727539;-1.74999904633;10.6557760239;1.46257758141;9.49184868659e-06;0.0;68.0;0.0;3.0;1.95628988743;
2.34911799431;5.35873365402;3247.78100586;-1.74999904633;10.5482463837;1.48853707314;1.25736924019e-05;0.0;68.0;0.0;3.0;2.02996611595;
2.39906167984;5.45353794098;3247.85595703;-1.74999880791;10.3983287811;1.5148717165;-7.99329336587e-06;0.0;68.0;0.0;3.0;2.10495233536;
2.44905877113;5.54963302612;3247.93237305;-1.74999892712;10.2680530548;1.54156470299;2.76896884088e-07;0.0;68.0;0.0;3.0;2.18126726151;
2.4990670681;5.64705181122;3248.01000977;-1.74999892712;10.1505317688;1.56862545013;1.17452837003e-05;0.0;68.0;0.0;3.0;2.25893139839;
2.54907727242;5.74571466446;3248.08886719;-1.74999904633;9.96163368225;1.59603190422;5.63847106605e-06;0.0;68.0;0.0;3.0;2.33796048164;
2.59907317162;5.84568595886;3248.16943359;-1.74999892712;9.71916866302;1.62380158901;3.19424816553e-06;0.0;68.0;0.0;3.0;2.41837334633;
2.64909482002;5.94711828232;3248.2512207;-1.74999880791;9.50895690918;1.65197730064;1.72856416611e-05;0.0;68.0;0.0;3.0;2.50019001961;
2.69907617569;6.04988193512;3248.33447266;-1.74999880791;9.23975658417;1.68052279949;-1.40771896895e-06;0.0;68.0;0.0;3.0;2.5834274292;
2.74908781052;6.15387248993;3248.41918945;-1.74999916553;8.81587791443;1.70940899849;-5.92383457843e-06;0.0;68.0;0.0;3.0;2.66810750961;
2.79908061028;6.25909614563;3248.50537109;-1.74999880791;8.11730289459;1.73863780499;2.90083630716e-06;0.0;68.0;0.0;3.0;2.75424790382;
2.84909176826;6.36320734024;3248.59277344;-1.74999904633;4.46064519882;1.767557621;9.5509494713e-06;0.0;68.0;0.0;3.0;2.84186935425;
2.89909410477;6.4716758728;3248.68188477;-1.74999880791;4.10520219803;1.79768776894;3.24394795825e-06;0.0;68.0;0.0;3.0;2.93099451065;
2.9490878582;6.58158588409;3248.77270508;-1.74999892712;3.75511288643;1.82821834087;-9.34679701459e-06;0.0;68.0;0.0;3.0;3.02163982391;
2.99909877777;6.69281053543;3248.86474609;-1.74999880791;3.22288227081;1.85911405087;-5.19041009284e-07;0.0;68.0;0.0;3.0;3.11382842064;
3.04910159111;6.80547904968;3248.95849609;-1.74999892712;2.73620057106;1.89041090012;-1.2915019397e-05;0.0;68.0;0.0;3.0;3.20757746696;
3.09911489487;6.91954755783;3249.05395508;-1.74999916553;2.35458803177;1.92209649086;8.46603688842e-06;0.0;68.0;0.0;3.0;3.30290484428;
3.14910578728;7.03422641754;3249.15087891;-1.74999892712;1.23897850513;1.95395183563;1.63941040228e-05;0.0;68.0;0.0;3.0;3.3998272419;
3.19909954071;7.15067148209;3249.24926758;-1.74999880791;0.672228038311;1.98629760742;-1.36952512548e-05;0.0;68.0;0.0;3.0;3.49836134911;
3.24910640717;7.26890563965;3249.34960938;-1.7499986887;0.747400999069;2.01914048195;-1.89931615751e-05;0.0;68.0;0.0;3.0;3.59852719307;
3.2991130352;7.38821744919;3249.45141602;-1.74999880791;0.657049834728;2.05228257179;1.00318311524e-05;0.0;68.0;0.0;3.0;3.70034074783;
3.34911704063;7.50872802734;3249.55493164;-1.7499986887;0.597941458225;2.08575773239;-7.0134174166e-06;0.0;68.0;0.0;3.0;3.80382275581;
3.39912891388;7.6305308342;3249.65991211;-1.74999892712;0.598381996155;2.11959195137;9.73837268248e-06;0.0;68.0;0.0;3.0;3.90898799896;
3.44910526276;7.7537651062;3249.7668457;-1.74999892712;0.834326267242;2.15382361412;-2.48495780397e-06;0.0;68.0;0.0;3.0;4.01585626602;
3.49912405014;7.87788581848;3249.87548828;-1.74999904633;0.646690368652;2.18830156326;2.19863759412e-05;0.0;68.0;0.0;3.0;4.1244430542;
3.54912424088;8.00354766846;3249.98583984;-1.74999904633;0.81922596693;2.22320771217;-2.92546951641e-06;0.0;68.0;0.0;3.0;4.23476743698;
3.59913849831;8.13021373749;3250.09790039;-1.74999892712;0.645738720894;2.25839281082;6.75254204907e-06;0.0;68.0;0.0;3.0;4.34684324265;
3.64912247658;8.25832462311;3250.21166992;-1.74999880791;0.767907559872;2.29397916794;-5.26098529008e-06;0.0;68.0;0.0;3.0;4.46069002151;
3.69912385941;8.38764095306;3250.32739258;-1.74999928474;0.82508212328;2.32990026474;1.67315265571e-05;0.0;68.0;0.0;3.0;4.57632303238;
3.7491350174;8.51786613464;3250.44482422;-1.74999952316;0.62623333931;2.36607384682;1.45761569001e-05;0.0;68.0;0.0;3.0;4.69375991821;
3.79913687706;8.64957141876;3250.56396484;-1.74999952316;0.791438937187;2.40265870094;1.81352497748e-05;0.0;68.0;0.0;3.0;4.81301498413;
3.84913086891;8.78211212158;3250.68505859;-1.74999964237;0.711855769157;2.43947553635;1.19344849736e-05;0.0;68.0;0.0;3.0;4.93410491943;
3.89913439751;8.91595363617;3250.80810547;-1.74999940395;0.746928036213;2.47665381432;5.03853061673e-06;0.0;68.0;0.0;3.0;5.05704450607;
3.94913554192;9.0507850647;3250.93286133;-1.74999952316;0.724820435047;2.51410698891;-1.00975503301e-05;0.0;68.0;0.0;3.0;5.18185043335;
3.99914622307;9.18675899506;3251.05957031;-1.74999928474;0.712738275528;2.55187749863;-1.54104800458e-05;0.0;68.0;0.0;3.0;5.30853796005;
4.04915046692;9.32385444641;3251.18823242;-1.74999916553;0.734313368797;2.58995962143;-1.03953352664e-05;0.0;68.0;0.0;3.0;5.43712091446;
4.0991435051;9.46206569672;3251.31860352;-1.74999916553;0.79716527462;2.62835168839;-1.25446504171e-05;0.0;68.0;0.0;3.0;5.56761741638;
4.14916467667;9.60145568848;3251.45092773;-1.74999952316;0.844227552414;2.66707110405;9.29276939132e-06;0.0;68.0;0.0;3.0;5.70003986359;
4.19915676117;9.74176216125;3251.58544922;-1.74999976158;0.778131186962;2.70604491234;1.86182860489e-05;0.0;68.0;0.0;3.0;5.83440494537;
4.24915504456;9.88331222534;3251.72167969;-1.75;0.801770865917;2.74536442757;1.04447226477e-05;0.0;68.0;0.0;3.0;5.97072935104;
4.29916095734;10.0259933472;3251.86010742;-1.74999988079;0.791548371315;2.78499817848;1.28190158648e-05;0.0;68.0;0.0;3.0;6.10902690887;
4.34916400909;10.1697654724;3252.00024414;-1.75000011921;0.76086127758;2.82493472099;1.48212966451e-05;0.0;68.0;0.0;3.0;6.249314785;
4.3991765976;10.314743042;3252.14257812;-1.74999988079;0.756243348122;2.86520648003;-1.1758720575e-05;0.0;68.0;0.0;3.0;6.39160871506;
4.44917821884;10.4610872269;3252.28686523;-1.74999988079;0.910500407219;2.90585756302;3.27819498125e-06;0.0;68.0;0.0;3.0;6.53592443466;
4.49917030334;10.6083030701;3252.43334961;-1.74999976158;0.834131002426;2.94675087929;-4.94441565024e-06;0.0;68.0;0.0;3.0;6.68227910995;
4.54917287827;10.7567367554;3252.58178711;-1.74999988079;0.757064282894;2.98798251152;-7.5410325735e-06;0.0;68.0;0.0;3.0;6.83068847656;
4.59917593002;10.9065494537;3252.73217773;-1.74999988079;0.813199043274;3.02959704399;-2.48721903517e-06;0.0;68.0;0.0;3.0;6.98117017746;
4.64918851852;11.0575323105;3252.88476562;-1.75;0.817514240742;3.0715367794;-7.08133393346e-06;0.0;68.0;0.0;3.0;7.13374137878;
4.69919252396;11.2097578049;3253.03930664;-1.75000023842;0.800122320652;3.1138215065;1.11483514047e-05;0.0;68.0;0.0;3.0;7.288418293;
4.74918317795;11.3633308411;3253.19628906;-1.75000011921;0.893557846546;3.15648078918;-1.16371438708e-06;0.0;68.0;0.0;3.0;7.44521856308;
4.79918527603;11.5181131363;3253.35522461;-1.75000035763;0.89109826088;3.19947576523;1.89152124221e-05;0.0;68.0;0.0;3.0;7.60416078568;
4.84918785095;11.6741580963;3253.51635742;-1.75000035763;0.813027381897;3.24282169342;7.67757114772e-07;0.0;68.0;0.0;3.0;7.76526260376;
4.89919090271;11.8316574097;3253.67944336;-1.75000011921;0.87039399147;3.28657150269;-5.12621045345e-06;0.0;68.0;0.0;3.0;7.92854213715;
4.94919157028;11.9903736115;3253.8449707;-1.75000023842;0.848173677921;3.3306593895;-8.4095256625e-07;0.0;68.0;0.0;3.0;8.09401893616;
4.99919557571;12.150645256;3254.01269531;-1.75000011921;0.890991568565;3.37517929077;-1.58876264322e-05;0.0;68.0;0.0;3.0;8.26171112061;
5.04919672012;12.3121976852;3254.18261719;-1.75000035763;0.898670256138;3.42005491257;5.1811857702e-06;0.0;68.0;0.0;3.0;8.43163871765;
5.09919929504;12.4752540588;3254.35473633;-1.75000023842;0.920053958893;3.46534824371;-4.48418450105e-06;0.0;68.0;0.0;3.0;8.60382080078;
5.1491932869;12.6396932602;3254.52929688;-1.75000047684;0.877497792244;3.51102590561;9.26914981392e-06;0.0;68.0;0.0;3.0;8.77827739716;
5.19920396805;12.8073959351;3254.70776367;-1.75000035763;0.985330283642;3.55761003494;4.97337441629e-06;0.0;68.0;0.0;3.0;8.95680904388;
5.24920272827;12.9749803543;3254.88696289;-1.75000059605;1.05513441563;3.60416126251;5.01627027916e-06;0.0;68.0;0.0;3.0;9.13590049744;
5.29922151566;13.1421527863;3255.06640625;-1.75000071526;0.915960252285;3.65059804916;9.49421246332e-06;0.0;68.0;0.0;3.0;9.3155040741;
5.34921169281;13.3128099442;3255.25024414;-1.75000047684;0.968136787415;3.69800281525;-2.69619772553e-06;0.0;68.0;0.0;3.0;9.49927043915;
5.39922475815;13.4850635529;3255.43652344;-1.75000035763;0.959381818771;3.74585103989;-1.10196187961e-05;0.0;68.0;0.0;3.0;9.68541812897;
5.44920730591;13.6606864929;3255.62695312;-1.75000035763;0.950404584408;3.79463505745;-6.42276427243e-06;0.0;68.0;0.0;3.0;9.87586784363;
5.49921035767;13.8346185684;3255.81591797;-1.75000035763;1.00825154781;3.84294962883;-1.68927126651e-05;0.0;68.0;0.0;3.0;10.064950943;
5.54922103882;14.013710022;3256.01123047;-1.75000083447;0.993133664131;3.89269733429;1.86375182238e-05;0.0;68.0;0.0;3.0;10.2603302002;
5.59921598434;14.191119194;3256.20532227;-1.75000095367;1.00237822533;3.94197750092;-6.55451003695e-06;0.0;68.0;0.0;3.0;10.4542922974;
5.64923620224;14.3719263077;3256.40380859;-1.75000107288;0.992582380772;3.99220180511;2.00265385502e-05;0.0;68.0;0.0;3.0;10.6527023315;
5.69921970367;14.5562973022;3256.60668945;-1.75000095367;0.932293772697;4.04341602325;3.79917605642e-06;0.0;68.0;0.0;3.0;10.8556594849;
5.74923038483;14.740811348;3256.81005859;-1.75000107288;1.00420713425;4.09466981888;6.88592763254e-06;0.0;68.0;0.0;3.0;11.0591688156;
5.79923248291;14.9271793365;3257.01635742;-1.7500013113;1.03930664062;4.14643859863;1.17417466754e-05;0.0;68.0;0.0;3.0;11.2652540207;
5.84924554825;15.1153802872;3257.22485352;-1.75000107288;1.05116760731;4.19871664047;3.3619514852e-06;0.0;68.0;0.0;3.0;11.4739408493;
5.89923810959;15.3055925369;3257.4362793;-1.75000119209;1.05757129192;4.25155353546;1.49911220433e-05;0.0;68.0;0.0;3.0;11.685256958;
5.94924020767;15.4978656769;3257.65014648;-1.75000107288;1.08694922924;4.30496263504;-6.17575506112e-06;0.0;68.0;0.0;3.0;11.8992300034;
5.99924278259;15.6922426224;3257.86694336;-1.75000035763;1.08847928047;4.35895633698;-1.79759790626e-05;0.0;68.0;0.0;3.0;12.1158895493;
6.04924440384;15.8887882233;3258.08618164;-1.75000071526;1.09805631638;4.41355228424;-3.16010823553e-06;0.0;68.0;0.0;3.0;12.3352651596;
6.09925794601;16.0875892639;3258.30834961;-1.75000071526;1.11964142323;4.46877479553;-2.80253857454e-06;0.0;68.0;0.0;3.0;12.557387352;
6.14926767349;16.2887001038;3258.53320312;-1.75000095367;1.10467433929;4.5246386528;7.85338215792e-06;0.0;68.0;0.0;3.0;12.7822885513;
6.19928073883;16.4922924042;3258.76098633;-1.75000107288;1.14173519611;4.58119249344;9.14103929972e-06;0.0;68.0;0.0;3.0;13.0100011826;
6.2492685318;16.6983222961;3258.99145508;-1.75000095367;1.1809732914;4.638422966;8.94035838428e-06;0.0;68.0;0.0;3.0;13.2405595779;
6.29928636551;16.9068889618;3259.22509766;-1.75000083447;1.12870717049;4.69635820389;7.0606679401e-06;0.0;68.0;0.0;3.0;13.4739990234;
6.34927845001;17.1182556152;3259.46142578;-1.75000071526;1.16289746761;4.75507116318;4.24217387263e-06;0.0;68.0;0.0;3.0;13.7103557587;
6.39928007126;17.332321167;3259.70068359;-1.75000095367;1.14488208294;4.81453371048;1.80864094546e-06;0.0;68.0;0.0;3.0;13.9496679306;
6.44930315018;17.5490570068;3259.94287109;-1.75000095367;1.19755971432;4.8747382164;5.17922080689e-06;0.0;68.0;0.0;3.0;14.1919746399;
6.4993057251;17.7687683105;3260.18823242;-1.75000083447;1.28411483765;4.93576908112;5.90691797697e-06;0.0;68.0;0.0;3.0;14.4373140335;
6.54929733276;17.9913215637;3260.43676758;-1.75000047684;1.27965021133;4.99758958817;-8.02080194262e-06;0.0;68.0;0.0;3.0;14.6857252121;
6.59930086136;18.2167949677;3260.68823242;-1.75000059605;1.24040567875;5.06022071838;-5.22327263752e-06;0.0;68.0;0.0;3.0;14.9372501373;
6.64929246902;18.4454059601;3260.94287109;-1.75000047684;1.2883027792;5.12372398376;-3.14815088132e-06;0.0;68.0;0.0;3.0;15.1919298172;
6.69929647446;18.6772251129;3261.20092773;-1.75000047684;1.28502428532;5.18811798096;-4.13972111346e-06;0.0;68.0;0.0;3.0;15.4498081207;
6.74928760529;18.9121894836;3261.46191406;-1.75000071526;1.32192933559;5.25338602066;8.78443916008e-06;0.0;68.0;0.0;3.0;15.7109298706;
6.79928064346;19.1505432129;3261.72631836;-1.75000071526;1.31848490238;5.31959533691;-1.32884804316e-06;0.0;68.0;0.0;3.0;15.9753408432;
6.84928321838;19.3923187256;3261.99414062;-1.75000071526;1.33884966373;5.38675546646;6.72384794598e-06;0.0;68.0;0.0;3.0;16.2430877686;
6.8992857933;19.6377258301;3262.26513672;-1.75000047684;1.36427283287;5.4549241066;-8.74274974194e-06;0.0;68.0;0.0;3.0;16.5142192841;
6.94928836823;19.8867263794;3262.53979492;-1.75000047684;1.33637392521;5.52409076691;3.89401157008e-06;0.0;68.0;0.0;3.0;16.7887859344;
6.99929094315;20.1394901276;3262.81787109;-1.75000059605;1.41296470165;5.59430265427;4.04743923355e-06;0.0;68.0;0.0;3.0;17.0668392181;
7.04929208755;20.39610672;3263.09936523;-1.75000047684;1.46238327026;5.66558504105;-8.39991741941e-07;0.0;68.0;0.0;3.0;17.3484325409;
7.09928703308;20.6565933228;3263.38452148;-1.75000083447;1.41956961155;5.73794269562;1.31275801323e-05;0.0;68.0;0.0;3.0;17.6336193085;
7.1492972374;20.921163559;3263.67333984;-1.75000023842;1.42959535122;5.81143426895;-7.41813937566e-06;0.0;68.0;0.0;3.0;17.922454834;
7.19929933548;21.1898288727;3263.96606445;-1.75000011921;1.50579059124;5.88606357574;-6.04608430876e-06;0.0;68.0;0.0;3.0;18.2149963379;
7.2492980957;21.4627304077;3264.26220703;-1.75000059605;1.50131356716;5.96186971664;1.48210506268e-06;0.0;68.0;0.0;3.0;18.5112991333;
7.29930496216;21.7397251129;3264.5625;-1.75000023842;1.52715837955;6.03881263733;-1.55250256739e-06;0.0;68.0;0.0;3.0;18.8114242554;
7.34929895401;22.020980835;3264.86645508;-1.75000035763;1.55812752247;6.11693906784;1.72896102413e-06;0.0;68.0;0.0;3.0;19.1154289246;
